#Radius	DirectM	BoxM	DirectS	BoxS	
1	0.557	0.916	0.858	1.45	
2	1.15	0.924	1.64	1.56	
3	2.08	0.932	2.74	1.56	
4	3.47	0.92	4.34	1.55	
5	5.13	0.935	6.34	1.55	
6	7.06	1.08	8.53	1.62	
7	9.42	1.08	11.3	1.63	
8	12.2	0.922	14.5	1.63	
9	15.3	0.924	18	1.63	
10	18.9	0.925	22.1	1.63	
15	43.3	0.929	50.2	1.64	
20	80.1	0.936	91.8	1.64	
25	131	0.939	149	1.64
